z [m],e,sig’ [Pa],k [m/s]
0.0000,2.78825,1.0000,1.678E-03
0.0010,2.48246,5.3252,1.668E-04
0.0020,2.36894,9.9083,7.077E-05
0.0030,2.29784,14.6176,4.138E-05
0.0040,2.24595,19.4151,2.797E-05
0.0050,2.20505,24.2815,2.054E-05
0.0060,2.17130,29.2049,1.592E-05
0.0070,2.14255,34.1769,1.281E-05
0.0080,2.11752,39.1916,1.061E-05
0.0090,2.09535,44.2444,8.971E-06
0.0100,2.07545,49.3317,7.720E-06
0.0110,2.05740,54.4504,6.736E-06
0.0120,2.04088,59.5981,5.947E-06
0.0130,2.02566,64.7728,5.301E-06
0.0140,2.01154,69.9725,4.765E-06
0.0150,1.99838,75.1959,4.314E-06
0.0160,1.98605,80.4416,3.931E-06
0.0170,1.97445,85.7083,3.601E-06
0.0180,1.96351,90.9950,3.316E-06
0.0190,1.95315,96.3007,3.066E-06
0.0200,1.94331,101.6246,2.847E-06
0.0210,1.93394,106.9659,2.653E-06
0.0220,1.92500,112.3238,2.479E-06
0.0230,1.91646,117.6978,2.325E-06
0.0240,1.90827,123.0873,2.185E-06
0.0250,1.90042,128.4916,2.059E-06
0.0260,1.89286,133.9103,1.945E-06
0.0270,1.88559,139.3429,1.841E-06
0.0280,1.87858,144.7890,1.746E-06
0.0290,1.87182,150.2481,1.659E-06
0.0300,1.86528,155.7198,1.580E-06
0.0310,1.85895,161.2039,1.506E-06
0.0320,1.85282,166.6999,1.438E-06
0.0330,1.84688,172.2076,1.375E-06
0.0340,1.84111,177.7266,1.316E-06
0.0350,1.83551,183.2567,1.262E-06
0.0360,1.83006,188.7975,1.211E-06
0.0370,1.82476,194.3489,1.163E-06
0.0380,1.81960,199.9106,1.119E-06
0.0390,1.81458,205.4823,1.077E-06
0.0400,1.80968,211.0638,1.038E-06
0.0410,1.80489,216.6550,1.001E-06
0.0420,1.80023,222.2556,9.666E-07
0.0430,1.79567,227.8654,9.339E-07
0.0440,1.79122,233.4843,9.030E-07
0.0450,1.78686,239.1121,8.738E-07
0.0460,1.78260,244.7485,8.462E-07
0.0470,1.77843,250.3935,8.200E-07
0.0480,1.77435,256.0469,7.951E-07
0.0490,1.77035,261.7085,7.714E-07
0.0500,1.76643,267.3782,7.489E-07
0.0510,1.76259,273.0559,7.275E-07
0.0520,1.75882,278.7414,7.071E-07
0.0530,1.75513,284.4346,6.877E-07
0.0540,1.75150,290.1354,6.691E-07
0.0550,1.74794,295.8436,6.513E-07
0.0560,1.74444,301.5592,6.344E-07
0.0570,1.74100,307.2820,6.181E-07
0.0580,1.73762,313.0119,6.025E-07
0.0590,1.73430,318.7488,5.876E-07
0.0600,1.73104,324.4927,5.733E-07
0.0610,1.72782,330.2433,5.596E-07
0.0620,1.72466,336.0007,5.464E-07
0.0630,1.72155,341.7647,5.337E-07
0.0640,1.71849,347.5352,5.215E-07
0.0650,1.71548,353.3122,5.098E-07
0.0660,1.71251,359.0956,4.985E-07
0.0670,1.70959,364.8852,4.876E-07
0.0680,1.70670,370.6811,4.771E-07
0.0690,1.70386,376.4831,4.670E-07
0.0700,1.70107,382.2911,4.572E-07
0.0710,1.69831,388.1051,4.478E-07
0.0720,1.69558,393.9250,4.387E-07
0.0730,1.69290,399.7508,4.299E-07
0.0740,1.69025,405.5823,4.214E-07
0.0750,1.68764,411.4196,4.132E-07
0.0760,1.68506,417.2624,4.052E-07
0.0770,1.68252,423.1109,3.975E-07
0.0780,1.68000,428.9649,3.900E-07
0.0790,1.67752,434.8243,3.828E-07
0.0800,1.67507,440.6891,3.758E-07
0.0810,1.67265,446.5593,3.690E-07
0.0820,1.67026,452.4347,3.624E-07
0.0830,1.66790,458.3154,3.560E-07
0.0840,1.66557,464.2012,3.497E-07
0.0850,1.66326,470.0922,3.437E-07
0.0860,1.66099,475.9882,3.378E-07
0.0870,1.65873,481.8893,3.321E-07
0.0880,1.65651,487.7953,3.266E-07
0.0890,1.65430,493.7063,3.212E-07
0.0900,1.65213,499.6222,3.160E-07
0.0910,1.64997,505.5428,3.109E-07
0.0920,1.64784,511.4683,3.059E-07
0.0930,1.64573,517.3985,3.011E-07
0.0940,1.64365,523.3334,2.964E-07
0.0950,1.64158,529.2730,2.918E-07
0.0960,1.63954,535.2172,2.874E-07
0.0970,1.63752,541.1660,2.830E-07
0.0980,1.63552,547.1193,2.788E-07
0.0990,1.63354,553.0771,2.746E-07
0.1000,1.63158,559.0393,2.706E-07
0.1010,1.62964,565.0060,2.667E-07
0.1020,1.62772,570.9771,2.628E-07
0.1030,1.62581,576.9525,2.591E-07
0.1040,1.62393,582.9322,2.554E-07
0.1050,1.62206,588.9162,2.518E-07
0.1060,1.62021,594.9044,2.483E-07
0.1070,1.61838,600.8969,2.449E-07
0.1080,1.61656,606.8935,2.416E-07
0.1090,1.61476,612.8943,2.383E-07
0.1100,1.61298,618.8992,2.351E-07
0.1110,1.61121,624.9082,2.320E-07
0.1120,1.60946,630.9212,2.290E-07
0.1130,1.60773,636.9382,2.260E-07
0.1140,1.60601,642.9592,2.231E-07
0.1150,1.60430,648.9842,2.202E-07
0.1160,1.60261,655.0131,2.174E-07
0.1170,1.60094,661.0459,2.147E-07
0.1180,1.59927,667.0826,2.120E-07
0.1190,1.59763,673.1231,2.094E-07
0.1200,1.59599,679.1675,2.068E-07
0.1210,1.59437,685.2156,2.043E-07
0.1220,1.59276,691.2675,2.019E-07
0.1230,1.59117,697.3232,1.994E-07
0.1240,1.58959,703.3825,1.971E-07
0.1250,1.58802,709.4455,1.947E-07
0.1260,1.58646,715.5123,1.925E-07
0.1270,1.58492,721.5826,1.902E-07
0.1280,1.58338,727.6566,1.881E-07
0.1290,1.58186,733.7341,1.859E-07
0.1300,1.58035,739.8152,1.838E-07
0.1310,1.57886,745.8999,1.817E-07
0.1320,1.57737,751.9881,1.797E-07
0.1330,1.57589,758.0797,1.777E-07
0.1340,1.57443,764.1749,1.758E-07
0.1350,1.57298,770.2735,1.738E-07
0.1360,1.57153,776.3755,1.720E-07
0.1370,1.57010,782.4810,1.701E-07
0.1380,1.56868,788.5898,1.683E-07
0.1390,1.56727,794.7021,1.665E-07
0.1400,1.56587,800.8176,1.648E-07
0.1410,1.56447,806.9365,1.630E-07
0.1420,1.56309,813.0587,1.613E-07
0.1430,1.56172,819.1842,1.597E-07
0.1440,1.56036,825.3130,1.580E-07
0.1450,1.55900,831.4450,1.564E-07
0.1460,1.55766,837.5803,1.549E-07
0.1470,1.55632,843.7187,1.533E-07
0.1480,1.55500,849.8604,1.518E-07
0.1490,1.55368,856.0052,1.503E-07
0.1500,1.55237,862.1532,1.488E-07
0.1510,1.55107,868.3044,1.473E-07
0.1520,1.54978,874.4586,1.459E-07
0.1530,1.54850,880.6160,1.445E-07
0.1540,1.54722,886.7765,1.431E-07
0.1550,1.54596,892.9400,1.418E-07
0.1560,1.54470,899.1066,1.404E-07
0.1570,1.54345,905.2762,1.391E-07
0.1580,1.54221,911.4489,1.378E-07
0.1590,1.54097,917.6246,1.365E-07
0.1600,1.53974,923.8032,1.353E-07
0.1610,1.53853,929.9849,1.340E-07
0.1620,1.53731,936.1695,1.328E-07
0.1630,1.53611,942.3570,1.316E-07
0.1640,1.53491,948.5475,1.304E-07
0.1650,1.53372,954.7409,1.293E-07
0.1660,1.53254,960.9371,1.281E-07
0.1670,1.53136,967.1363,1.270E-07
0.1680,1.53019,973.3384,1.259E-07
0.1690,1.52903,979.5433,1.248E-07
0.1700,1.52788,985.7510,1.237E-07
0.1710,1.52673,991.9616,1.226E-07
0.1720,1.52559,998.1750,1.216E-07
0.1730,1.52445,1004.3912,1.205E-07
0.1740,1.52332,1010.6102,1.195E-07
0.1750,1.52220,1016.8319,1.185E-07
0.1760,1.52109,1023.0564,1.175E-07
0.1770,1.51998,1029.2837,1.165E-07
0.1780,1.51887,1035.5137,1.156E-07
0.1790,1.51778,1041.7464,1.146E-07
0.1800,1.51668,1047.9818,1.137E-07
0.1810,1.51560,1054.2200,1.127E-07
0.1820,1.51452,1060.4608,1.118E-07
0.1830,1.51345,1066.7042,1.109E-07
0.1840,1.51238,1072.9504,1.100E-07
0.1850,1.51132,1079.1992,1.091E-07
0.1860,1.51026,1085.4506,1.083E-07
0.1870,1.50921,1091.7046,1.074E-07
0.1880,1.50817,1097.9613,1.066E-07
0.1890,1.50713,1104.2206,1.057E-07
0.1900,1.50609,1110.4824,1.049E-07
0.1910,1.50506,1116.7468,1.041E-07
0.1920,1.50404,1123.0138,1.033E-07
0.1930,1.50302,1129.2834,1.025E-07
0.1940,1.50201,1135.5554,1.017E-07
0.1950,1.50100,1141.8301,1.010E-07
0.1960,1.50000,1148.1072,1.002E-07
0.1970,1.49900,1154.3869,9.946E-08
0.1980,1.49801,1160.6690,9.871E-08
0.1990,1.49702,1166.9537,9.798E-08
0.2000,1.49604,1173.2408,9.726E-08
